# z (m), U (m/s), V (m/s), M (m/s), Theta (K), Ri (1)
1.000000000000000056e-01, 0.000000000000000000e+00, 0.000000000000000000e+00, 0.000000000000000000e+00, 2.628437593561285439e+02, 1.572221053532699923e-03
9.944479457320000160e-01, 1.350202957546047244e+00, 9.126250193407324796e-01, 1.629709430564882489e+00, 2.630397117283549733e+02, 5.301348195036409763e-03
1.893627228199999957e+00, 1.811778812148057360e+00, 1.218591294588077467e+00, 2.183470722319205137e+00, 2.631083649999397380e+02, 1.215361965794444984e-02
2.797562874640000086e+00, 2.074695076406022576e+00, 1.389748413205182498e+00, 2.497160314723870123e+00, 2.631471673746079887e+02, 1.411806169648449974e-02
3.706280044650000161e+00, 2.281779258670489696e+00, 1.522540506858802711e+00, 2.743119849031285362e+00, 2.631762998010382262e+02, 1.861138522884194998e-02
4.619804030920000137e+00, 2.445634875684097764e+00, 1.626042827659052614e+00, 2.936871676249894758e+00, 2.631992421375909998e+02, 2.277421301954652560e-02
5.538160259939999719e+00, 2.583076344963687543e+00, 1.711601792949282386e+00, 3.098700210559547585e+00, 2.632184123080439804e+02, 2.688239720212277223e-02
6.461374292690000409e+00, 2.702311465667650126e+00, 1.784770194076224836e+00, 3.238514951718937329e+00, 2.632350163853837444e+02, 3.091245832591324461e-02
7.389471825360000246e+00, 2.808287127196849919e+00, 1.848887048144089995e+00, 3.362284190157452279e+00, 2.632497679516772564e+02, 3.485540156067777617e-02
8.322478690060000517e+00, 2.904203460554864780e+00, 1.906107854743305019e+00, 3.473866367855024784e+00, 2.632631233676367515e+02, 3.870767948365935046e-02
9.260420855570000498e+00, 2.992246701807740106e+00, 1.957902125082042533e+00, 3.575895840301690054e+00, 2.632753919817202473e+02, 4.246839909416574854e-02
1.020332442800000017e+01, 3.073975622840292576e+00, 2.005315329855322570e+00, 3.670249706244757881e+00, 2.632867931240987218e+02, 4.613807130912375015e-02
1.115121565159999939e+01, 3.150540373723309973e+00, 2.049117064615327610e+00, 3.758312079338287592e+00, 2.632974879558249768e+02, 4.971799230447497553e-02
1.210412090930000062e+01, 3.222813761066327665e+00, 2.089889839205602673e+00, 3.841132566629997580e+00, 2.633075983904737427e+02, 5.320992212828637435e-02
1.306206672379999922e+01, 3.291473799911144749e+00, 2.128084861615767487e+00, 3.919525896596775194e+00, 2.633172189062982511e+02, 5.661591156748855408e-02
1.402507975800000040e+01, 3.357057703804263049e+00, 2.164058492900305275e+00, 3.994137061132862598e+00, 2.633264242279880136e+02, 5.993820501306117848e-02
1.499318681579999968e+01, 3.419998387421187225e+00, 2.198096877173549846e+00, 4.065485348307272595e+00, 2.633352744969520245e+02, 6.317918260039274980e-02
1.596641484290000079e+01, 3.480649858495262983e+00, 2.230433063908880076e+00, 4.133994966338707222e+00, 2.633438188546305128e+02, 6.634132248172178170e-02
1.694479092759999972e+01, 3.539305322179060020e+00, 2.261259208924425224e+00, 4.200016874408184719e+00, 2.633520979894877314e+02, 6.942717320960396787e-02
1.792834230149999897e+01, 3.596210371288730112e+00, 2.290735458610272612e+00, 4.263844685123062916e+00, 2.633601459877220350e+02, 7.243933109913602841e-02
1.891709634000000051e+01, 3.651572781382512733e+00, 2.318996543635369889e+00, 4.325726471683292829e+00, 2.633679917043522778e+02, 7.538042009181242231e-02
1.991108056359999878e+01, 3.705569909082597313e+00, 2.346156756311589930e+00, 4.385873684407554762e+00, 2.633756597965902415e+02, 7.825307308293226460e-02
2.091032263820000026e+01, 3.758354365629852367e+00, 2.372313765161087495e+00, 4.444467987304334677e+00, 2.633831715147190380e+02, 8.105991442000032299e-02
2.191485037620000043e+01, 3.810058427656302538e+00, 2.397551578365844982e+00, 4.501666571951637330e+00, 2.633905453157810257e+02, 8.380354363144001950e-02
2.292469173710000163e+01, 3.860797508865864813e+00, 2.421942874407054802e+00, 4.557606339093039693e+00, 2.633977973457400026e+02, 8.648652059217226684e-02
2.393987482800000066e+01, 3.910672923374187704e+00, 2.445550855479264651e+00, 4.612407226238530278e+00, 2.634049418225992554e+02, 8.911135232437097931e-02
2.496042790510000131e+01, 3.959774107786967257e+00, 2.468430736313672824e+00, 4.666174882758756581e+00, 2.634119913439717493e+02, 9.168048162329969775e-02
2.598637937370000017e+01, 4.008180424735590108e+00, 2.490630951132899895e+00, 4.719002840460790438e+00, 2.634189571363338018e+02, 9.419627753239319390e-02
2.701775778969999919e+01, 4.055962639225759503e+00, 2.512194140311299950e+00, 4.770974289807969448e+00, 2.634258492587669593e+02, 9.666102777317968353e-02
2.805459185979999859e+01, 4.103184136617049838e+00, 2.533157963125542533e+00, 4.822163544769909826e+00, 2.634326767708320176e+02, 9.907693295440020420e-02
2.909691044250000047e+01, 4.149901934687100002e+00, 2.553555771946477648e+00, 4.872637259552847766e+00, 2.634394478719077597e+02, 1.014461025418670059e-01
3.014474254929999830e+01, 4.196167530154980341e+00, 2.573417175085199737e+00, 4.922455445896810389e+00, 2.634461700176427712e+02, 1.037705523868407420e-01
3.119811734479999998e+01, 4.242027611053137193e+00, 2.592768509450719794e+00, 4.971672328791255424e+00, 2.634528500178939794e+02, 1.060522036173950078e-01
3.225706414799999777e+01, 4.287524659608202171e+00, 2.611633239631895087e+00, 5.020337070341845731e+00, 2.634594941195912270e+02, 1.082928827736960031e-01
3.332161243310000032e+01, 4.332697465120507907e+00, 2.630032296537007319e+00, 5.068494385288863313e+00, 2.634661080772422110e+02, 1.104943229149944889e-01
3.439179183000000251e+01, 4.377581562396565040e+00, 2.647984366067662521e+00, 5.116185066930409420e+00, 2.634726972132319816e+02, 1.126581655582467451e-01
3.546763212540000154e+01, 4.422209608251255197e+00, 2.665506136250074931e+00, 5.163446438537082628e+00, 2.634792664696607289e+02, 1.147859632689110093e-01
3.654916326370000235e+01, 4.466611706189814512e+00, 2.682612509628152342e+00, 5.210312742445039724e+00, 2.634858204531162755e+02, 1.168791827693542451e-01
3.763641534770000163e+01, 4.510815687506174676e+00, 2.699316786458282547e+00, 5.256815476754164607e+00, 2.634923634735175142e+02, 1.189392083962902691e-01
3.872941863909999682e+01, 4.554847355566280953e+00, 2.715630823248925019e+00, 5.302983687784367461e+00, 2.634988995779682455e+02, 1.209673458005249974e-01
3.982820355999999862e+01, 4.598730698846597242e+00, 2.731565170381972774e+00, 5.348844224999055541e+00, 2.635054325803852748e+02, 1.229648258257867444e-01
4.093280069330000259e+01, 4.642488077329320895e+00, 2.747129191903342260e+00, 5.394421963938437870e+00, 2.635119660875324712e+02, 1.249328084260392380e-01
4.204324078369999995e+01, 4.686140386103027744e+00, 2.762331170056927743e+00, 5.439740001795110302e+00, 2.635185035219959673e+02, 1.268723865924624994e-01
4.315955473870000247e+01, 4.729707199380074556e+00, 2.777178396708522179e+00, 5.484819829496700549e+00, 2.635250481425339899e+02, 1.287845902459587299e-01
4.428177362880000345e+01, 4.773206897635818180e+00, 2.791677253462862662e+00, 5.529681483549314436e+00, 2.635316030621744972e+02, 1.306703900035744992e-01
4.540992868949999917e+01, 4.816656780150439410e+00, 2.805833281991354955e+00, 5.574343680384124866e+00, 2.635381712643787182e+02, 1.325307008653392460e-01
4.654405132099999776e+01, 4.860073164869567641e+00, 2.819651245847882404e+00, 5.618823935513194812e+00, 2.635447556175247428e+02, 1.343663857066637601e-01
4.768417308979999802e+01, 4.903471477239167875e+00, 2.833135184864862488e+00, 5.663138669481568854e+00, 2.635513588879447298e+02, 1.361782586576734955e-01
4.883032572949999661e+01, 4.946866329405442464e+00, 2.846288463051457107e+00, 5.707303302287751734e+00, 2.635579837517070132e+02, 1.379670882751865002e-01
4.998254114129999692e+01, 4.990271590980784211e+00, 2.859113810783847853e+00, 5.751332337714685217e+00, 2.635646328052982312e+02, 1.397336005830789873e-01
5.114085139529999680e+01, 5.033700452410992732e+00, 2.871613361964812317e+00, 5.795239438812640032e+00, 2.635713085753679934e+02, 1.414784818421119805e-01
5.230528873130000278e+01, 5.077165481798135538e+00, 2.883788686722027705e+00, 5.839037495565362335e+00, 2.635780135276342548e+02, 1.432023812251614903e-01
5.347588555950000000e+01, 5.120678675960474990e+00, 2.895640820147934669e+00, 5.882738685674177681e+00, 2.635847500750727477e+02, 1.449059133731290250e-01
5.465267446160000020e+01, 5.164251506402042224e+00, 2.907170287512794715e+00, 5.926354529264997062e+00, 2.635915205854802252e+02, 1.465896606961177295e-01
5.583568819159999919e+01, 5.207894960749552382e+00, 2.918377126315345294e+00, 5.969895938190377116e+00, 2.635983273884870641e+02, 1.482541755272739903e-01
5.702495967689999645e+01, 5.251619580154434530e+00, 2.929260905489927680e+00, 6.013373260524220498e+00, 2.636051727820967585e+02, 1.498999821213162498e-01
5.822052201889999878e+01, 5.295435493093849644e+00, 2.939820742045534452e+00, 6.056796320770025055e+00, 2.636120590388134701e+02, 1.515275785572309797e-01
5.942240849419999904e+01, 5.339352445949807624e+00, 2.950055315375094800e+00, 6.100174456237970055e+00, 2.636189884114114648e+02, 1.531374384469897376e-01
6.063065255539999754e+01, 5.383379830695944612e+00, 2.959962879440487526e+00, 6.143516549987102060e+00, 2.636259631384007207e+02, 1.547300125716552510e-01
6.184528783209999858e+01, 5.427526709977147590e+00, 2.969541273010152249e+00, 6.186831060676637684e+00, 2.636329854492274762e+02, 1.563057303608124948e-01
6.306634813160000164e+01, 5.471801839837207027e+00, 2.978787928102987870e+00, 6.230126049633519791e+00, 2.636400575692570101e+02, 1.578650012454995144e-01
6.429386744020000322e+01, 5.516213690320327601e+00, 2.987699876771254814e+00, 6.273409205407687317e+00, 2.636471817245710554e+02, 1.594082159834084855e-01
6.552787992400000405e+01, 5.560770464132728463e+00, 2.996273756333605043e+00, 6.316687866042292931e+00, 2.636543601466127598e+02, 1.609357477818975091e-01
6.676841992980000384e+01, 5.605480113533782394e+00, 3.004505813154407345e+00, 6.359969039264687041e+00, 2.636615950767144909e+02, 1.624479534141127501e-01
6.801552198599999599e+01, 5.650350355612292930e+00, 3.012391905052245189e+00, 6.403259420786195477e+00, 2.636688887705324760e+02, 1.639451741951277464e-01
6.926922080369999435e+01, 5.695388686076356954e+00, 3.019927502405065134e+00, 6.446565410868115187e+00, 2.636762435024177194e+02, 1.654277369183222435e-01
7.052955127760000664e+01, 5.740602391667462001e+00, 3.027107688007587782e+00, 6.489893129291284701e+00, 2.636836615697497450e+02, 1.668959546959732643e-01
7.179654848699999548e+01, 5.785998561299420473e+00, 3.033927155726599878e+00, 6.533248428853298151e+00, 2.636911452972557299e+02, 1.683501277247097527e-01
7.307024769679999565e+01, 5.831584096005682838e+00, 3.040380207989042738e+00, 6.576636907499002760e+00, 2.636986970413385052e+02, 1.697905440088772477e-01
7.435068435830000055e+01, 5.877365717769952980e+00, 3.046460752129224847e+00, 6.620063919178861944e+00, 2.637063191944362188e+02, 1.712174800048782419e-01
7.563789411049999956e+01, 5.923349977303422165e+00, 3.052162295612802279e+00, 6.663534583516899978e+00, 2.637140141894399790e+02, 1.726312012219487491e-01
7.693191278070000294e+01, 5.969543260818735320e+00, 3.057477940146462458e+00, 6.707053794355425147e+00, 2.637217845041852229e+02, 1.740319627638700073e-01
7.823277638599999761e+01, 6.015951795844827643e+00, 3.062400374675199988e+00, 6.750626227236690369e+00, 2.637296326660459727e+02, 1.754200098042200118e-01
7.954052113379999867e+01, 6.062581656113065876e+00, 3.066921867260897550e+00, 6.794256345867047742e+00, 2.637375612566512473e+02, 1.767955780645740216e-01
8.085518342299999972e+01, 6.109438765546666872e+00, 3.071034255829935056e+00, 6.837948407609792056e+00, 2.637455729167447771e+02, 1.781588941814984950e-01
8.217679984529999615e+01, 6.156528901367725126e+00, 3.074728937769049875e+00, 6.881706468034920476e+00, 2.637536703512212171e+02, 1.795101760858330286e-01
8.350540718569999399e+01, 6.203857696326412707e+00, 3.077996858341627728e+00, 6.925534384544308253e+00, 2.637618563343525011e+02, 1.808496333097172615e-01
8.484104242380000471e+01, 6.251430640064907784e+00, 3.080828497890787609e+00, 6.969435819097462570e+00, 2.637701337152377619e+02, 1.821774672661055083e-01
8.618374273499999560e+01, 6.299253079605644956e+00, 3.083213857786614831e+00, 7.013414240041042191e+00, 2.637785054235047824e+02, 1.834938714965925199e-01
8.753354549120000172e+01, 6.347330218945058000e+00, 3.085142445067734940e+00, 7.057472923037022561e+00, 2.637869744752872521e+02, 1.847990318546149924e-01
8.889048826200000519e+01, 6.395667117737435348e+00, 3.086603255720219874e+00, 7.101614951087491967e+00, 2.637955439795162533e+02, 1.860931267036182446e-01
9.025460881559999393e+01, 6.444268689044025500e+00, 3.087584756528097163e+00, 7.145843213644820224e+00, 2.638042171445522399e+02, 1.873763270020727678e-01
9.162594512030000260e+01, 6.493139696101172476e+00, 3.088074865420527448e+00, 7.190160404776207770e+00, 2.638129972852017318e+02, 1.886487964505447479e-01
9.300453534499999364e+01, 6.542284748056927057e+00, 3.088060930232004786e+00, 7.234569020348008195e+00, 2.638218878301514678e+02, 1.899106915028222486e-01
9.439041786059999595e+01, 6.591708294627326659e+00, 3.087529705782064759e+00, 7.279071354196602783e+00, 2.638308923298657191e+02, 1.911621614096944977e-01
9.578363124089999303e+01, 6.641414619599315117e+00, 3.086467329169944929e+00, 7.323669493230910099e+00, 2.638400144649924641e+02, 1.924033481949194990e-01
9.718421426369999949e+01, 6.691407833101127522e+00, 3.084859293168119798e+00, 7.368365311406305018e+00, 2.638492580553322568e+02, 1.936343866026395133e-01
9.859220591209999895e+01, 6.741691862543089719e+00, 3.082690417586357423e+00, 7.413160462494149172e+00, 2.638586270694174800e+02, 1.948554039858735043e-01
1.000076453749999956e+02, 6.792270442131817632e+00, 3.079944818463570044e+00, 7.458056371571455401e+00, 2.638681256347770159e+02, 1.960665201666379753e-01
1.014305720499999950e+02, 6.843147100801765248e+00, 3.076605874931927609e+00, 7.503054225103374719e+00, 2.638777580489332308e+02, 1.972678472789542448e-01
1.028610255400000000e+02, 6.894325148452569607e+00, 3.072656193578980233e+00, 7.548154959531562014e+00, 2.638875287912262593e+02, 1.984594894452977598e-01
1.042990456609999939e+02, 6.945807660356817514e+00, 3.068077570113137753e+00, 7.593359248260436623e+00, 2.638974425355429503e+02, 1.996415425861979842e-01
1.057446724379999949e+02, 6.997597459451087687e+00, 3.062850948128942541e+00, 7.638667486800844841e+00, 2.639075041640230097e+02, 2.008140940004572439e-01
1.071979461070000070e+02, 7.049697096372861793e+00, 3.056956374735597670e+00, 7.684079775964106851e+00, 2.639177187818687571e+02, 2.019772219627264942e-01
1.086589071180000019e+02, 7.102108827019414150e+00, 3.050372952788312553e+00, 7.729595902923646733e+00, 2.639280917333574621e+02, 2.031309952513674910e-01
1.101275961340000009e+02, 7.154834587288144476e+00, 3.043078789445232246e+00, 7.775215319860805607e+00, 2.639386286191875115e+02, 2.042754725602294874e-01
1.116040540340000007e+02, 7.207875964715547035e+00, 3.035050940734335345e+00, 7.820937119963959461e+00, 2.639493353152930126e+02, 2.054107018747567681e-01
1.130883219130000015e+02, 7.261234166629839670e+00, 3.026265351788314906e+00, 7.866760010462467534e+00, 2.639602179932859940e+02, 2.065367197170702440e-01
1.145804410829999966e+02, 7.314909984415562505e+00, 3.016696792364897739e+00, 7.912682282364542630e+00, 2.639712831427027595e+02, 2.076535502813612322e-01
1.160804530749999941e+02, 7.368903753415867008e+00, 3.006318787231204936e+00, 7.958701776507027148e+00, 2.639825375952522677e+02, 2.087612044743447359e-01
1.175883996390000021e+02, 7.423215307908765048e+00, 2.995103540949839882e+00, 8.004815845450316658e+00, 2.639939885512892488e+02, 2.098596788105450139e-01
1.191043227459999940e+02, 7.477843930565184039e+00, 2.983021856545077011e+00, 8.051021310729259639e+00, 2.640056436087647853e+02, 2.109489541233912357e-01
1.206282645910000042e+02, 7.532788295594015082e+00, 2.970043047494454580e+00, 8.097314414800269589e+00, 2.640175107949295352e+02, 2.120289942138005035e-01
1.221602675879999964e+02, 7.588046404784209997e+00, 2.956134842408854713e+00, 8.143690767031724675e+00, 2.640295986011157652e+02, 2.130997440688214839e-01
1.237003743799999995e+02, 7.643615515523002557e+00, 2.941263281691842479e+00, 8.190145282974539143e+00, 2.640419160209727352e+02, 2.141611281944065248e-01
1.252486278330000005e+02, 7.699492059544902567e+00, 2.925392605438327465e+00, 8.236672115878988620e+00, 2.640544725925449825e+02, 2.152130483721425014e-01
1.268050710389999978e+02, 7.755671551220339133e+00, 2.908485131694839687e+00, 8.283264579471609323e+00, 2.640672784446837795e+02, 2.162553812777762430e-01
1.283697473199999877e+02, 7.812148483890699602e+00, 2.890501124127775157e+00, 8.329915060752222544e+00, 2.640803443483350179e+02, 2.172879757988875060e-01
1.299427002269999889e+02, 7.868916212355255624e+00, 2.871398648094987571e+00, 8.376614921238621392e+00, 2.640936817732929853e+02, 2.183106498598194889e-01
1.315239735389999964e+02, 7.925966819555824827e+00, 2.851133413938712557e+00, 8.423354385036599723e+00, 2.641073029511422305e+02, 2.193231868121815198e-01
1.331136112689999891e+02, 7.983290965078134960e+00, 2.829658606211402194e+00, 8.470122411755781400e+00, 2.641212209452110073e+02, 2.203253313913337563e-01
1.347116576619999933e+02, 8.040877712546411260e+00, 2.806924697459007412e+00, 8.516906551841184836e+00, 2.641354497284442573e+02, 2.213167849374785001e-01
1.363181571979999944e+02, 8.098714332573930363e+00, 2.782879245022412462e+00, 8.563692781544389732e+00, 2.641500042702809878e+02, 2.222972000385922409e-01
1.379331545889999973e+02, 8.156786077421317671e+00, 2.757466669127515146e+00, 8.610465314328010322e+00, 2.641649006337927403e+02, 2.232661741021645108e-01
1.395566947890000051e+02, 8.215075922625194593e+00, 2.730628010439174691e+00, 8.657206384755465223e+00, 2.641801560845279937e+02, 2.242232423340189962e-01
1.411888229840000122e+02, 8.273564270001365628e+00, 2.702300665097222332e+00, 8.703896000198719562e+00, 2.641957892127194896e+02, 2.251678690497457558e-01
1.428295846030000007e+02, 8.332228605520612064e+00, 2.672418095025587803e+00, 8.750511654928903482e+00, 2.642118200708515019e+02, 2.260994380657840030e-01
1.444790253140000118e+02, 8.391043104032972266e+00, 2.640909511265502552e+00, 8.797027999881034788e+00, 2.642282703288362882e+02, 2.270172411563257386e-01
1.461371910249999928e+02, 8.449978171407627414e+00, 2.607699527894732583e+00, 8.843416460188590733e+00, 2.642451634495059807e+02, 2.279204645892550229e-01
1.478041278910000074e+02, 8.508999912656680209e+00, 2.572707784056327718e+00, 8.889644790894470461e+00, 2.642625248875500006e+02, 2.288081735154402496e-01
1.494798823069999969e+02, 8.568069512137494570e+00, 2.535848531697837416e+00, 8.935676559153579390e+00, 2.642803823155777536e+02, 2.296792931949217520e-01
1.511645009140000013e+02, 8.627142509266574777e+00, 2.497030186610374791e+00, 8.981470538959889893e+00, 2.642987658817020247e+02, 2.305325870203129845e-01
1.528580306030000031e+02, 8.686167949263973398e+00, 2.456154840853014942e+00, 9.026980001109031093e+00, 2.643177085037622192e+02, 2.313666304669035056e-01
1.545605185089999907e+02, 8.745087384016082765e+00, 2.413117735255087215e+00, 9.072151877308559875e+00, 2.643372462062519617e+02, 2.321797796884685072e-01
1.562720120189999875e+02, 8.803833692705492098e+00, 2.367806691634955385e+00, 9.116925772655132931e+00, 2.643574185072040450e+02, 2.329701343122370094e-01
1.579925587689999986e+02, 8.862329684639384197e+00, 2.320101506211599940e+00, 9.161232794480682173e+00, 2.643782688635379827e+02, 2.337354923873782575e-01
1.597222066470000073e+02, 8.920486438048570221e+00, 2.269873308243622656e+00, 9.204994158039015772e+00, 2.643998451850394531e+02, 2.344732961255129866e-01
1.614610037969999894e+02, 8.978201317494217903e+00, 2.216983892018822289e+00, 9.248119519790343190e+00, 2.644222004289462689e+02, 2.351805662591680002e-01
